# time   E components   B components   kinetic energy   momentum components 
0 0.48318 9.2831e-27 3.74835e-27 0 0 0 12826.3 1619.94 1599.33 1466.5
0.02 0.48289 6.11443e-06 1.89591e-07 1.06506e-62 3.74808e-37 3.76256e-37 12828.3 1620.61 1599.33 1466.5
0.04 0.482134 2.4449e-05 7.50439e-07 3.73921e-39 3.65667e-12 6.60376e-11 12832.2 1621.74 1599.32 1466.5
0.06 0.480898 5.4947e-05 1.67794e-06 1.78655e-38 3.16994e-11 5.93764e-10 12837.4 1623.03 1599.28 1466.51
0.08 0.479158 9.78273e-05 2.94006e-06 4.90885e-38 1.13568e-10 2.36438e-09 12844.2 1624.6 1599.23 1466.51
0.1 0.476936 0.00015317 4.52302e-06 1.0695e-37 2.79977e-10 6.61433e-09 12852.7 1626.6 1599.17 1466.52
0.12 0.474367 0.000220702 6.47697e-06 2.10197e-37 5.75942e-10 1.50913e-08 12863.2 1629.04 1599.09 1466.53
0.14 0.471449 0.000299987 8.86398e-06 3.73345e-37 1.08069e-09 2.99405e-08 12874.3 1631.56 1598.99 1466.55
0.16 0.468089 0.000390452 1.17151e-05 6.14997e-37 1.88461e-09 5.3697e-08 12886.8 1634.39 1598.87 1466.56
0.18 0.464293 0.000491781 1.50071e-05 9.54418e-37 3.16183e-09 8.9194e-08 12900.8 1637.5 1598.74 1466.58
0.2 0.46006 0.000604202 1.87845e-05 1.42607e-36 5.11122e-09 1.39439e-07 12916 1640.77 1598.59 1466.6
0.22 0.455382 0.000727686 2.28382e-05 2.05563e-36 7.86964e-09 2.07862e-07 12932.3 1644.21 1598.43 1466.62
0.24 0.450221 0.000860326 2.67853e-05 2.87457e-36 1.168e-08 2.98694e-07 12950.4 1647.82 1598.25 1466.64
0.26 0.444567 0.0010018 3.10499e-05 3.96478e-36 1.64907e-08 4.15499e-07 12970 1651.65 1598.06 1466.67
0.28 0.4385 0.00115361 3.59674e-05 5.38312e-36 2.26595e-08 5.61043e-07 12991.4 1655.73 1597.85 1466.7
0.3 0.43208 0.00131537 4.12692e-05 7.22636e-36 3.10522e-08 7.40251e-07 13014.4 1659.98 1597.63 1466.73
0.32 0.425315 0.00148521 4.68835e-05 9.60427e-36 4.22675e-08 9.57089e-07 13039.2 1664.43 1597.39 1466.76
0.34 0.41821 0.00166234 5.27516e-05 1.26655e-35 5.72042e-08 1.21364e-06 13065.5 1669.1 1597.14 1466.79
0.36 0.41075 0.0018468 5.88596e-05 1.66018e-35 7.65671e-08 1.51396e-06 13093.7 1674.08 1596.87 1466.83
0.38 0.402979 0.00203763 6.53748e-05 2.14695e-35 1.00424e-07 1.86076e-06 13123.9 1679.43 1596.6 1466.86
0.4 0.394961 0.00223565 7.21251e-05 2.74203e-35 1.29158e-07 2.25285e-06 13155.8 1685.09 1596.31 1466.9
0.42 0.386689 0.00244333 7.91638e-05 3.46065e-35 1.64172e-07 2.68804e-06 13189 1690.96 1596.01 1466.94
0.44 0.378125 0.00266108 8.66094e-05 4.31981e-35 2.06359e-07 3.17338e-06 13223.3 1697.04 1595.69 1466.98
0.46 0.369289 0.0028876 9.42271e-05 5.33241e-35 2.57352e-07 3.72414e-06 13259.5 1703.42 1595.35 1467.03
0.48 0.360219 0.00312226 0.000101752 6.52702e-35 3.17772e-07 4.35065e-06 13296.7 1710.01 1595 1467.07
0.5 0.35092 0.00336404 0.000109162 7.92868e-35 3.84413e-07 5.06317e-06 13334.9 1716.8 1594.64 1467.12
0.52 0.341426 0.00361215 0.000116634 9.5767e-35 4.55168e-07 5.87103e-06 13374.1 1723.76 1594.27 1467.16
0.54 0.331783 0.00386619 0.000124245 1.15294e-34 5.30751e-07 6.77423e-06 13414.5 1730.98 1593.88 1467.21
0.56 0.32202 0.00412459 0.000131992 1.38562e-34 6.1307e-07 7.77051e-06 13455.4 1738.3 1593.49 1467.27
0.58 0.312145 0.00438572 0.0001397 1.66391e-34 7.07042e-07 8.85484e-06 13497.2 1745.78 1593.08 1467.32
0.6 0.30219 0.00464764 0.000147321 1.99371e-34 8.16353e-07 1.00252e-05 13539.3 1753.31 1592.66 1467.38
0.62 0.292159 0.00491044 0.000155076 2.38252e-34 9.41716e-07 1.12846e-05 13581.7 1760.85 1592.23 1467.43
0.64 0.282041 0.00517484 0.00016314 2.83851e-34 1.07787e-06 1.26318e-05 13624.2 1768.41 1591.79 1467.49
0.66 0.271867 0.00544032 0.000171743 3.37241e-34 1.22201e-06 1.40689e-05 13666.9 1775.96 1591.34 1467.55
0.68 0.261655 0.00570649 0.000180888 3.99145e-34 1.37683e-06 1.55915e-05 13709.5 1783.48 1590.88 1467.61
0.7 0.251404 0.00597303 0.000190353 4.71055e-34 1.5472e-06 1.71904e-05 13752.3 1791.07 1590.41 1467.66
0.72 0.241098 0.00624031 0.000199632 5.5448e-34 1.73863e-06 1.8867e-05 13795.1 1798.68 1589.94 1467.73
0.74 0.230774 0.00650854 0.000208832 6.51177e-34 1.94587e-06 2.06259e-05 13838.2 1806.33 1589.45 1467.79
0.76 0.220495 0.00677868 0.00021866 7.62612e-34 2.16198e-06 2.24629e-05 13881.4 1814.01 1588.95 1467.85
0.78 0.21027 0.00705191 0.000229006 8.91105e-34 2.39758e-06 2.43858e-05 13924.3 1821.66 1588.44 1467.92
0.8 0.200107 0.00732728 0.000239742 1.03948e-33 2.66852e-06 2.64027e-05 13966.8 1829.21 1587.91 1467.98
0.82 0.190056 0.0076028 0.000250469 1.21104e-33 2.9785e-06 2.85237e-05 14008.8 1836.67 1587.38 1468.05
0.84 0.180154 0.00787656 0.000261188 1.40955e-33 3.32605e-06 3.07685e-05 14050 1844 1586.83 1468.12
0.86 0.170433 0.00814654 0.000271522 1.63891e-33 3.71511e-06 3.31547e-05 14090.4 1851.19 1586.28 1468.19
0.88 0.16088 0.00841193 0.000281371 1.90279e-33 4.14202e-06 3.56834e-05 14130 1858.25 1585.72 1468.26
0.9 0.15147 0.00867243 0.000291894 2.20433e-33 4.59176e-06 3.83434e-05 14168.7 1865.19 1585.15 1468.33
0.92 0.142223 0.00892792 0.000302873 2.54762e-33 5.07278e-06 4.11314e-05 14206.8 1872.02 1584.58 1468.4
0.94 0.133159 0.00917773 0.000314328 2.93763e-33 5.58983e-06 4.40473e-05 14244.1 1878.71 1584.01 1468.47
0.96 0.12431 0.00942103 0.000327023 3.37864e-33 6.12177e-06 4.71053e-05 14280.6 1885.27 1583.44 1468.54
0.98 0.115714 0.00965872 0.00034157 3.87829e-33 6.65644e-06 5.03031e-05 14316.1 1891.64 1582.88 1468.61
1 0.107394 0.00989216 0.000357262 4.44395e-33 7.21032e-06 5.36025e-05 14350.3 1897.8 1582.32 1468.67
1.02 0.0993672 0.0101214 0.000372448 5.08024e-33 7.79852e-06 5.69885e-05 14383.3 1903.75 1581.75 1468.74
1.04 0.0916196 0.0103468 0.000386572 5.79387e-33 8.42058e-06 6.04552e-05 14415.2 1909.53 1581.17 1468.81
1.06 0.0841387 0.0105675 0.000400185 6.58699e-33 9.07338e-06 6.40015e-05 14446.1 1915.15 1580.6 1468.89
1.08 0.0769089 0.010783 0.000413814 7.46449e-33 9.77172e-06 6.76342e-05 14475.8 1920.59 1580.04 1468.96
1.1 0.0699592 0.0109938 0.000426892 8.43545e-33 1.05285e-05 7.13747e-05 14504.6 1925.86 1579.5 1469.03
1.12 0.0633208 0.0111996 0.000438197 9.51013e-33 1.13575e-05 7.52799e-05 14532 1930.88 1578.96 1469.11
1.14 0.0569905 0.0113989 0.000446891 1.06949e-32 1.22837e-05 7.93757e-05 14558.2 1935.69 1578.43 1469.18
1.16 0.0509773 0.0115914 0.000453206 1.19918e-32 1.33516e-05 8.36195e-05 14583.1 1940.27 1577.91 1469.26
1.18 0.0453062 0.0117792 0.000458894 1.34105e-32 1.45995e-05 8.79389e-05 14606.8 1944.64 1577.39 1469.33
1.2 0.0399729 0.0119606 0.000465454 1.49575e-32 1.60303e-05 9.23226e-05 14628.9 1948.73 1576.88 1469.41
1.22 0.034942 0.0121347 0.000472946 1.66393e-32 1.76725e-05 9.67659e-05 14649.6 1952.59 1576.38 1469.49
1.24 0.0302424 0.0123028 0.000480875 1.84605e-32 1.95711e-05 0.000101253 14669.2 1956.23 1575.89 1469.57
1.26 0.0259161 0.0124643 0.00048998 2.04309e-32 2.1773e-05 0.000105819 14687.3 1959.63 1575.39 1469.66
1.28 0.0219627 0.0126187 0.000499969 2.25657e-32 2.43287e-05 0.00011054 14703.7 1962.74 1574.9 1469.74
1.3 0.0183727 0.0127653 0.000508719 2.48735e-32 2.72972e-05 0.000115512 14718.6 1965.61 1574.4 1469.82
1.32 0.0151341 0.0129032 0.00051566 2.73643e-32 3.07301e-05 0.000120806 14732.1 1968.23 1573.9 1469.91
1.34 0.0122293 0.0130304 0.000521445 3.00493e-32 3.46433e-05 0.000126461 14744.1 1970.6 1573.41 1470
1.36 0.00965247 0.0131465 0.000526262 3.2948e-32 3.90458e-05 0.000132496 14754.8 1972.72 1572.91 1470.09
1.38 0.00739576 0.0132526 0.000528785 3.60787e-32 4.39335e-05 0.000138918 14764 1974.6 1572.42 1470.18
1.4 0.00545151 0.0133483 0.000529896 3.94592e-32 4.92397e-05 0.000145715 14772 1976.24 1571.94 1470.27
1.42 0.00383102 0.0134343 0.00053135 4.31073e-32 5.48835e-05 0.000152843 14778.6 1977.64 1571.47 1470.36
1.44 0.0025384 0.0135099 0.000530829 4.70569e-32 6.08405e-05 0.00016029 14783.8 1978.8 1570.99 1470.45
1.46 0.00156023 0.0135755 0.000528192 5.13494e-32 6.70451e-05 0.000168051 14787.6 1979.72 1570.52 1470.54
1.48 0.000884669 0.0136311 0.000526164 5.60098e-32 7.33946e-05 0.000176133 14790.1 1980.4 1570.06 1470.64
1.5 0.00050318 0.0136774 0.000525542 6.1076e-32 7.98327e-05 0.0001846 14791.4 1980.86 1569.62 1470.73
1.52 0.000406747 0.0137143 0.000525068 6.66022e-32 8.63565e-05 0.000193504 14791.4 1981.08 1569.2 1470.82
1.54 0.000585543 0.013739 0.000524602 7.26431e-32 9.29905e-05 0.000202855 14790.3 1981.1 1568.78 1470.91
1.56 0.00103063 0.0137541 0.000524704 7.92594e-32 9.98046e-05 0.000212613 14787.9 1980.9 1568.38 1471
1.58 0.00172905 0.0137596 0.000525634 8.6503e-32 0.000106904 0.000222743 14784.4 1980.49 1567.97 1471.09
1.6 0.00266843 0.0137545 0.00052732 9.44229e-32 0.00011434 0.000233155 14779.8 1979.88 1567.57 1471.17
1.62 0.0038416 0.0137429 0.000530925 1.03096e-31 0.000122114 0.000243745 14774.1 1979.07 1567.17 1471.25
1.64 0.00523559 0.0137235 0.000537604 1.12622e-31 0.000130342 0.00025463 14767.3 1978.07 1566.78 1471.32
1.66 0.00683405 0.0136933 0.000546251 1.2308e-31 0.000139203 0.00026593 14759.7 1976.89 1566.41 1471.41
1.68 0.00862273 0.0136547 0.000555396 1.34528e-31 0.000148775 0.000277663 14751 1975.53 1566.03 1471.49
1.7 0.0105889 0.0136063 0.000563588 1.47034e-31 0.000159043 0.000290031 14741.6 1974 1565.66 1471.58
1.72 0.0127191 0.0135469 0.000570028 1.60699e-31 0.00017003 0.000303249 14731.3 1972.29 1565.3 1471.67
1.74 0.0149943 0.0134757 0.000575034 1.75632e-31 0.000181809 0.000317347 14720.2 1970.45 1564.93 1471.75
1.76 0.0173968 0.0133912 0.000577488 1.91932e-31 0.000194425 0.000332218 14708.4 1968.45 1564.55 1471.84
1.78 0.0199149 0.0132964 0.000578742 2.09693e-31 0.000207835 0.000347636 14696.1 1966.34 1564.2 1471.94
1.8 0.0225422 0.0131889 0.000578681 2.29006e-31 0.000221985 0.000363475 14683.2 1964.1 1563.84 1472.03
1.82 0.0252623 0.0130677 0.000576832 2.49932e-31 0.000236816 0.000379429 14669.7 1961.74 1563.49 1472.13
1.84 0.0280633 0.0129359 0.000576649 2.72568e-31 0.00025219 0.000394969 14655.9 1959.28 1563.15 1472.23
1.86 0.0309354 0.0127954 0.000575491 2.97075e-31 0.000268144 0.00040968 14641.5 1956.7 1562.83 1472.34
1.88 0.0338535 0.0126502 0.000570859 3.23612e-31 0.000284689 0.000423127 14626.8 1954.01 1562.53 1472.45
1.9 0.0367936 0.0124976 0.00056384 3.52311e-31 0.000301629 0.000435065 14611.9 1951.24 1562.24 1472.55
1.92 0.0397489 0.0123386 0.000555694 3.83231e-31 0.000318758 0.000445387 14596.6 1948.38 1561.97 1472.65
1.94 0.0427122 0.0121763 0.000547659 4.16436e-31 0.000335944 0.000453949 14581 1945.44 1561.71 1472.75
1.96 0.0456688 0.0120084 0.000539039 4.5204e-31 0.000353196 0.000460681 14565.2 1942.45 1561.44 1472.84
1.98 0.0486368 0.0118344 0.000528688 4.9022e-31 0.000370521 0.000465686 14549.3 1939.4 1561.18 1472.93
2 0.0516019 0.0116565 0.000515483 5.31154e-31 0.000387758 0.000469036 14533.3 1936.3 1560.94 1473.01
2.02 0.0545252 0.0114734 0.000498205 5.74959e-31 0.00040458 0.000470696 14517.3 1933.2 1560.7 1473.1
2.04 0.0573915 0.0112824 0.000478156 6.21722e-31 0.000420606 0.000470845 14501.4 1930.07 1560.48 1473.2
2.06 0.0601629 0.0110856 0.00045759 6.71512e-31 0.00043549 0.000469476 14485.7 1926.93 1560.26 1473.3
2.08 0.0628311 0.0108844 0.000438777 7.24435e-31 0.00044886 0.000466486 14470.2 1923.8 1560.05 1473.4
2.1 0.0654176 0.0106784 0.000421909 7.80659e-31 0.000460288 0.000462054 14454.9 1920.65 1559.84 1473.5
2.12 0.0679056 0.0104678 0.000407107 8.40315e-31 0.000469383 0.00045631 14439.7 1917.51 1559.64 1473.61
2.14 0.070277 0.0102531 0.000396342 9.03515e-31 0.000475797 0.000449177 14424.8 1914.41 1559.44 1473.72
2.16 0.0725202 0.0100317 0.000390412 9.70407e-31 0.000479342 0.000440607 14410.3 1911.33 1559.24 1473.83
2.18 0.0746723 0.00980277 0.000389458 1.04114e-30 0.000480039 0.000430687 14396.2 1908.33 1559.04 1473.94
2.2 0.0767358 0.00957021 0.000394237 1.1159e-30 0.000477732 0.000419472 14382.2 1905.31 1558.86 1474.04
2.22 0.0786454 0.00933828 0.000404971 1.1949e-30 0.000472368 0.000406898 14368.5 1902.31 1558.68 1474.13
2.24 0.0804105 0.00910367 0.000421737 1.27845e-30 0.000464198 0.000392882 14355.2 1899.4 1558.5 1474.22
2.26 0.0820301 0.00886472 0.000443717 1.36691e-30 0.000453366 0.000377762 14342.4 1896.52 1558.33 1474.29
2.28 0.0834651 0.00862338 0.000470562 1.46058e-30 0.00044007 0.000361986 14330 1893.72 1558.16 1474.37
2.3 0.0847489 0.00837821 0.000502964 1.55981e-30 0.000424555 0.000345798 14318.2 1890.99 1557.99 1474.43
2.32 0.0859246 0.00812929 0.000537432 1.66504e-30 0.000407164 0.000329446 14306.8 1888.3 1557.83 1474.49
2.34 0.0869536 0.00787769 0.00057073 1.77669e-30 0.000388438 0.000313228 14295.8 1885.67 1557.69 1474.55
2.36 0.0878164 0.00762506 0.000602967 1.8953e-30 0.000368977 0.000297469 14285.4 1883.11 1557.55 1474.6
2.38 0.0885536 0.00737392 0.000633752 2.02138e-30 0.000349308 0.000282423 14275.6 1880.63 1557.42 1474.65
2.4 0.0891418 0.00712563 0.000661495 2.15546e-30 0.000329771 0.000268285 14266.3 1878.18 1557.29 1474.72
2.42 0.0895513 0.00687615 0.000688137 2.29823e-30 0.000310562 0.000255305 14257.5 1875.82 1557.15 1474.78
2.44 0.089811 0.00662148 0.000716145 2.45047e-30 0.000291994 0.000243825 14249.2 1873.55 1557.04 1474.84
2.46 0.0899177 0.00636227 0.000741179 2.61284e-30 0.000274549 0.000234165 14241.6 1871.34 1556.93 1474.9
2.48 0.0898364 0.00610132 0.000765893 2.78581e-30 0.000258821 0.000226423 14234.5 1869.21 1556.84 1474.96
2.5 0.0895804 0.0058404 0.000792605 2.96979e-30 0.000245205 0.000220629 14228.2 1867.19 1556.76 1475.02
2.52 0.0891841 0.00558126 0.000817499 3.16527e-30 0.000233926 0.00021684 14222.4 1865.26 1556.67 1475.07
2.54 0.0886343 0.0053235 0.000840544 3.37271e-30 0.000225256 0.000215047 14217.2 1863.41 1556.59 1475.13
2.56 0.0879273 0.00506697 0.000860095 3.5925e-30 0.000219452 0.000215333 14212.6 1861.66 1556.5 1475.19
2.58 0.0870821 0.00481049 0.000879871 3.82506e-30 0.000216756 0.00021774 14208.6 1860.01 1556.42 1475.24
2.6 0.0860886 0.00455335 0.00089964 4.07086e-30 0.000217393 0.000222126 14205 1858.44 1556.35 1475.29
2.62 0.0849499 0.00429864 0.000914678 4.33035e-30 0.000221473 0.000228314 14202.1 1856.98 1556.28 1475.33
2.64 0.0836959 0.00404716 0.000926321 4.60391e-30 0.000229033 0.000236136 14199.8 1855.59 1556.23 1475.38
2.66 0.0823212 0.00379782 0.000932862 4.89214e-30 0.000240127 0.000245367 14198 1854.3 1556.17 1475.42
2.68 0.0808266 0.00355374 0.000933311 5.19582e-30 0.000254664 0.000255796 14196.6 1853.08 1556.13 1475.47
2.7 0.0792274 0.00331935 0.000929973 5.5157e-30 0.000272492 0.000267185 14195.8 1851.93 1556.09 1475.52
2.72 0.0775501 0.00309377 0.000924802 5.85246e-30 0.000293401 0.000279302 14195.4 1850.89 1556.06 1475.56
2.74 0.0757764 0.00287391 0.000917503 6.20669e-30 0.000317068 0.000291957 14195.3 1849.92 1556.03 1475.59
2.76 0.0738822 0.00265916 0.000901608 6.57896e-30 0.000343162 0.000304917 14195.8 1849.06 1556.01 1475.62
2.78 0.0718761 0.00245407 0.000879677 6.96996e-30 0.000371132 0.000317983 14196.7 1848.28 1555.98 1475.65
2.8 0.069778 0.00226135 0.000857788 7.3804e-30 0.000400333 0.000330997 14198.2 1847.6 1555.95 1475.69
2.82 0.0676189 0.0020808 0.000837423 7.81085e-30 0.000430282 0.000343834 14200.2 1847.01 1555.92 1475.74
2.84 0.0653905 0.00191014 0.000818816 8.26187e-30 0.000460452 0.00035641 14202.5 1846.51 1555.88 1475.79
2.86 0.0631197 0.00174902 0.000803442 8.73382e-30 0.000490355 0.000368707 14205.2 1846.09 1555.84 1475.84
2.88 0.0608208 0.00159775 0.000792646 9.22709e-30 0.000519599 0.000380656 14208.3 1845.74 1555.81 1475.89
2.9 0.0584734 0.00145436 0.000782971 9.74228e-30 0.000547868 0.000392117 14211.8 1845.53 1555.77 1475.93
2.92 0.0560994 0.0013197 0.000779576 1.02796e-29 0.000574871 0.000402998 14215.8 1845.4 1555.75 1475.98
2.94 0.053707 0.00119685 0.00078671 1.08387e-29 0.000600325 0.000413175 14220 1845.35 1555.73 1476.01
2.96 0.0513122 0.0010886 0.000797315 1.14196e-29 0.000623983 0.00042242 14224.4 1845.37 1555.7 1476.03
2.98 0.0489237 0.000995447 0.000806553 1.20225e-29 0.00064551 0.000430583 14229 1845.42 1555.67 1476.06
3 0.0465267 0.000915461 0.000817044 1.2648e-29 0.000664615 0.00043769 14233.8 1845.53 1555.65 1476.08
3.02 0.0441319 0.000845808 0.000831241 1.32959e-29 0.000681249 0.000443848 14238.7 1845.69 1555.61 1476.11
3.04 0.0417391 0.000788927 0.000851678 1.39658e-29 0.000695342 0.000449061 14243.7 1845.88 1555.58 1476.14
3.06 0.0393403 0.000748434 0.000875668 1.46576e-29 0.000706744 0.000453278 14248.7 1846.13 1555.55 1476.16
3.08 0.0369758 0.000721419 0.000900308 1.53706e-29 0.000715223 0.000456607 14254 1846.44 1555.51 1476.18
3.1 0.0346643 0.000708603 0.000928453 1.6104e-29 0.00072059 0.000459329 14259.2 1846.74 1555.47 1476.21
3.12 0.0323925 0.000709906 0.000960645 1.68568e-29 0.000723188 0.000461745 14264.4 1847.08 1555.42 1476.23
3.14 0.0301759 0.000718908 0.000997217 1.76289e-29 0.000723414 0.000464018 14269.5 1847.45 1555.38 1476.24
3.16 0.0280083 0.000738199 0.00103702 1.84202e-29 0.000721456 0.000466247 14274.7 1847.83 1555.37 1476.26
3.18 0.0259015 0.000768913 0.00108033 1.92312e-29 0.000717559 0.000468588 14279.8 1848.23 1555.35 1476.27
3.2 0.0238572 0.000810699 0.00112757 2.00617e-29 0.000712207 0.000471207 14284.8 1848.64 1555.34 1476.28
3.22 0.0218789 0.000866737 0.00117955 2.09117e-29 0.000705928 0.000474285 14289.6 1849.05 1555.32 1476.28
3.24 0.0199737 0.00093323 0.00123442 2.17812e-29 0.000699022 0.000477923 14294 1849.46 1555.28 1476.24
3.26 0.0181333 0.00100716 0.00129202 2.26699e-29 0.000691629 0.000482128 14298.1 1849.85 1555.25 1476.21
3.28 0.0163653 0.00109116 0.00135609 2.35773e-29 0.000683854 0.000487116 14302 1850.27 1555.22 1476.16
3.3 0.0146866 0.00118531 0.00142864 2.45028e-29 0.000675995 0.000493137 14305.9 1850.68 1555.19 1476.12
3.32 0.0131109 0.00128961 0.00150696 2.54462e-29 0.000668376 0.000500244 14309.6 1851.07 1555.17 1476.08
3.34 0.0116376 0.00140436 0.00158751 2.64072e-29 0.000661528 0.000508376 14312.9 1851.44 1555.14 1476.02
3.36 0.0102653 0.00152712 0.00166916 2.73858e-29 0.000656282 0.000517625 14316 1851.8 1555.13 1475.96
3.38 0.00899136 0.0016602 0.00175011 2.83821e-29 0.000653393 0.000528039 14318.8 1852.14 1555.11 1475.89
3.4 0.00780966 0.00180404 0.00183393 2.93961e-29 0.000653457 0.000539474 14321.3 1852.46 1555.11 1475.81
3.42 0.00671232 0.00195642 0.00191422 3.04281e-29 0.000656871 0.000551668 14323.7 1852.76 1555.12 1475.72
3.44 0.00570565 0.00211939 0.00198786 3.1478e-29 0.000664031 0.000564362 14326 1853.05 1555.14 1475.65
3.46 0.00479927 0.00229355 0.00205852 3.25457e-29 0.000675401 0.000577582 14328.1 1853.32 1555.15 1475.58
3.48 0.00400183 0.00247681 0.00212155 3.36302e-29 0.000691166 0.000591484 14329.9 1853.55 1555.18 1475.5
3.5 0.00330387 0.00266571 0.00217572 3.47298e-29 0.000711417 0.000606124 14331.4 1853.74 1555.22 1475.45
3.52 0.00270204 0.00286121 0.00222715 3.58437e-29 0.000736198 0.000621466 14332.6 1853.92 1555.26 1475.38
3.54 0.00218957 0.00306436 0.00227776 3.69712e-29 0.000765409 0.000637333 14333.3 1854.07 1555.29 1475.29
3.56 0.00176808 0.00327305 0.00232246 3.81112e-29 0.000799032 0.000653543 14333.8 1854.19 1555.34 1475.19
3.58 0.00144868 0.00349029 0.0023621 3.92626e-29 0.0008372 0.000670067 14334.1 1854.27 1555.41 1475.09
3.6 0.00122999 0.0037177 0.00240074 4.04257e-29 0.000879981 0.000686874 14334.1 1854.31 1555.49 1475
3.62 0.00110576 0.00395351 0.00243873 4.16021e-29 0.000927264 0.000703985 14333.8 1854.31 1555.57 1474.89
3.64 0.0010669 0.0041968 0.00247733 4.27933e-29 0.000978948 0.000721407 14333.3 1854.29 1555.65 1474.81
3.66 0.00111718 0.00444925 0.00251781 4.40004e-29 0.00103491 0.000739045 14332.5 1854.23 1555.71 1474.73
3.68 0.00125729 0.00470893 0.00255548 4.52239e-29 0.00109505 0.000756955 14331 1854.15 1555.76 1474.62
3.7 0.00149217 0.00497211 0.00258508 4.64638e-29 0.00115915 0.000775131 14329.3 1854.03 1555.8 1474.53
3.72 0.00181952 0.00524276 0.00260708 4.77201e-29 0.0012268 0.000793337 14327.2 1853.87 1555.84 1474.44
3.74 0.00222663 0.00551967 0.00262602 4.8993e-29 0.0012975 0.000811461 14325 1853.68 1555.87 1474.36
3.76 0.00270636 0.005799 0.0026435 5.02823e-29 0.00137089 0.000829447 14322.4 1853.48 1555.91 1474.27
3.78 0.00324519 0.00608165 0.0026578 5.1588e-29 0.00144672 0.000847164 14319.6 1853.26 1555.94 1474.18
3.8 0.0038472 0.00636772 0.00267443 5.29109e-29 0.00152452 0.000864476 14316.7 1853.01 1555.99 1474.11
