# time   E components   B components   kinetic energy   momentum components 
0 2.02319e-23 7.76798e-11 2.58584e-24 0 0 5e-07 1.17995 1.4662 5.01447 4.59799
0.02 1.84547e-11 1.3785e-08 3.88758e-10 2.9652e-46 4.10576e-58 4.99689e-07 1.17995 1.4662 5.01447 4.59799
0.04 7.38041e-11 5.42732e-08 1.55472e-09 7.94099e-41 7.65274e-28 4.98758e-07 1.17994 1.4662 5.01442 4.598
0.06 1.65982e-10 1.21491e-07 3.49649e-09 1.10445e-39 2.75341e-26 4.97209e-07 1.17993 1.4662 5.01433 4.59801
0.08 2.94862e-10 2.15341e-07 6.21143e-09 9.71164e-39 3.07131e-25 4.95046e-07 1.17991 1.4662 5.01419 4.59803
0.1 4.60262e-10 3.35685e-07 9.69565e-09 4.64413e-38 1.92568e-24 4.92276e-07 1.17988 1.4662 5.014 4.59805
0.12 6.61938e-10 4.82337e-07 1.3944e-08 1.41128e-37 8.50358e-24 4.88906e-07 1.17985 1.4662 5.01377 4.59808
0.14 8.99589e-10 6.5507e-07 1.89503e-08 3.6263e-37 2.96337e-23 4.84946e-07 1.17981 1.4662 5.01349 4.59812
0.16 1.17286e-09 8.53614e-07 2.47068e-08 9.49668e-37 8.70286e-23 4.80407e-07 1.17976 1.4662 5.01317 4.59816
0.18 1.48133e-09 1.07765e-06 3.12049e-08 2.99093e-36 2.24511e-22 4.75302e-07 1.17971 1.4662 5.0128 4.59821
0.2 1.82453e-09 1.32683e-06 3.84345e-08 8.71177e-36 5.23167e-22 4.69645e-07 1.17965 1.4662 5.01238 4.59826
0.22 2.20193e-09 1.60076e-06 4.63846e-08 2.15359e-35 1.12313e-21 4.63453e-07 1.17958 1.4662 5.01192 4.59832
0.24 2.61295e-09 1.89899e-06 5.50429e-08 4.71329e-35 2.25365e-21 4.56742e-07 1.17951 1.4662 5.01141 4.59839
0.26 3.05696e-09 2.22104e-06 6.4396e-08 9.23866e-35 4.27265e-21 4.49533e-07 1.17943 1.4662 5.01086 4.59846
0.28 3.53325e-09 2.5664e-06 7.44294e-08 1.65555e-34 7.71845e-21 4.41844e-07 1.17934 1.4662 5.01026 4.59854
0.3 4.0411e-09 2.93452e-06 8.51273e-08 2.75702e-34 1.33759e-20 4.33697e-07 1.17925 1.4662 5.00962 4.59862
0.32 4.57971e-09 3.32479e-06 9.64732e-08 4.32409e-34 2.23573e-20 4.25116e-07 1.17915 1.4662 5.00893 4.59871
0.34 5.14824e-09 3.73659e-06 1.08449e-07 6.53403e-34 3.62019e-20 4.16124e-07 1.17905 1.4662 5.0082 4.5988
0.36 5.74579e-09 4.16924e-06 1.21037e-07 9.62477e-34 5.69945e-20 4.06746e-07 1.17894 1.4662 5.00742 4.5989
0.38 6.37143e-09 4.62206e-06 1.34216e-07 1.37895e-33 8.75068e-20 3.97008e-07 1.17882 1.4662 5.0066 4.59901
0.4 7.02418e-09 5.0943e-06 1.47966e-07 1.92212e-33 1.31362e-19 3.86936e-07 1.1787 1.4662 5.00573 4.59912
0.42 7.70302e-09 5.58521e-06 1.62266e-07 2.59177e-33 1.93225e-19 3.76557e-07 1.17858 1.4662 5.00483 4.59924
0.44 8.40687e-09 6.09398e-06 1.77092e-07 3.3766e-33 2.79025e-19 3.65901e-07 1.17844 1.4662 5.00388 4.59936
0.46 9.13462e-09 6.61979e-06 1.92422e-07 4.27673e-33 3.96198e-19 3.54995e-07 1.17831 1.4662 5.00289 4.59949
0.48 9.88513e-09 7.16178e-06 2.08232e-07 5.29102e-33 5.53972e-19 3.43869e-07 1.17816 1.4662 5.00185 4.59962
0.5 1.06572e-08 7.71909e-06 2.24496e-07 6.53709e-33 7.63677e-19 3.32552e-07 1.17802 1.4662 5.00077 4.59976
0.52 1.14497e-08 8.29079e-06 2.41188e-07 8.13932e-33 1.03909e-18 3.21074e-07 1.17786 1.4662 4.99966 4.59991
0.54 1.22612e-08 8.87597e-06 2.58283e-07 1.01494e-32 1.39681e-18 3.09464e-07 1.17771 1.4662 4.9985 4.60006
0.56 1.30906e-08 9.47368e-06 2.75753e-07 1.26631e-32 1.85668e-18 2.97753e-07 1.17755 1.4662 4.9973 4.60021
0.58 1.39364e-08 1.00829e-05 2.93571e-07 1.57496e-32 2.44223e-18 2.85971e-07 1.17738 1.4662 4.99606 4.60037
0.6 1.47975e-08 1.07028e-05 3.11708e-07 1.94783e-32 3.18124e-18 2.74147e-07 1.17721 1.4662 4.99479 4.60054
0.62 1.56723e-08 1.13322e-05 3.30136e-07 2.39109e-32 4.10616e-18 2.6231e-07 1.17704 1.4662 4.99347 4.60071
0.64 1.65596e-08 1.19701e-05 3.48826e-07 2.91028e-32 5.25479e-18 2.50491e-07 1.17686 1.4662 4.99211 4.60088
0.66 1.74579e-08 1.26156e-05 3.67747e-07 3.51062e-32 6.67081e-18 2.38716e-07 1.17668 1.4662 4.99072 4.60106
0.68 1.83657e-08 1.32675e-05 3.8687e-07 4.19664e-32 8.40443e-18 2.27015e-07 1.17649 1.4662 4.98929 4.60125
0.7 1.92817e-08 1.39248e-05 4.06165e-07 4.95256e-32 1.05131e-17 2.15414e-07 1.1763 1.4662 4.98783 4.60144
0.72 2.02044e-08 1.45865e-05 4.25601e-07 5.75779e-32 1.30623e-17 2.03941e-07 1.17611 1.4662 4.98632 4.60163
0.74 2.11323e-08 1.52514e-05 4.45146e-07 6.61036e-32 1.61259e-17 1.92622e-07 1.17591 1.4662 4.98478 4.60183
0.76 2.2064e-08 1.59186e-05 4.6477e-07 7.51032e-32 1.97876e-17 1.8148e-07 1.17572 1.4662 4.98321 4.60203
0.78 2.29979e-08 1.65868e-05 4.84442e-07 8.46016e-32 2.41412e-17 1.7054e-07 1.17551 1.4662 4.9816 4.60224
0.8 2.39326e-08 1.72551e-05 5.04131e-07 9.46442e-32 2.92916e-17 1.59825e-07 1.17531 1.4662 4.97996 4.60245
0.82 2.48666e-08 1.79224e-05 5.23804e-07 1.05317e-31 3.53559e-17 1.49357e-07 1.17511 1.4662 4.97829 4.60267
0.84 2.57984e-08 1.85876e-05 5.43431e-07 1.16982e-31 4.24638e-17 1.39156e-07 1.1749 1.4662 4.97658 4.60289
0.86 2.67265e-08 1.92496e-05 5.62981e-07 1.2983e-31 5.07589e-17 1.29241e-07 1.17469 1.4662 4.97484 4.60311
0.88 2.76495e-08 1.99074e-05 5.82422e-07 1.43751e-31 6.04003e-17 1.1963e-07 1.17448 1.4662 4.97307 4.60334
0.9 2.85659e-08 2.05599e-05 6.01723e-07 1.589e-31 7.1563e-17 1.10339e-07 1.17427 1.4662 4.97127 4.60358
0.92 2.94741e-08 2.1206e-05 6.20853e-07 1.75583e-31 8.44379e-17 1.01385e-07 1.17405 1.4662 4.96945 4.60381
0.94 3.03728e-08 2.18447e-05 6.39783e-07 1.94141e-31 9.9233e-17 9.27795e-08 1.17384 1.4662 4.96759 4.60405
0.96 3.12606e-08 2.24751e-05 6.58481e-07 2.14932e-31 1.16175e-16 8.45357e-08 1.17362 1.4662 4.9657 4.6043
0.98 3.21359e-08 2.3096e-05 6.76919e-07 2.38321e-31 1.35508e-16 7.6664e-08 1.1734 1.4662 4.96379 4.60454
1 3.29975e-08 2.37065e-05 6.95066e-07 2.64667e-31 1.575e-16 6.91736e-08 1.17319 1.4662 4.96189 4.60479
1.02 3.38439e-08 2.43056e-05 7.12893e-07 2.94307e-31 1.82435e-16 6.20719e-08 1.17298 1.4662 4.95999 4.60505
1.04 3.46738e-08 2.48924e-05 7.30372e-07 3.27438e-31 2.10622e-16 5.5365e-08 1.17278 1.4662 4.9581 4.60531
1.06 3.54858e-08 2.54659e-05 7.47475e-07 3.64065e-31 2.42391e-16 4.90573e-08 1.17257 1.4662 4.9562 4.60557
1.08 3.62787e-08 2.60253e-05 7.64175e-07 4.04253e-31 2.78097e-16 4.31515e-08 1.17237 1.4662 4.95429 4.60583
1.1 3.70511e-08 2.65695e-05 7.80445e-07 4.48142e-31 3.18114e-16 3.76492e-08 1.17217 1.4662 4.95238 4.6061
1.12 3.7802e-08 2.70979e-05 7.96259e-07 4.9585e-31 3.62847e-16 3.25499e-08 1.17197 1.4662 4.95046 4.60636
1.14 3.85299e-08 2.76094e-05 8.11592e-07 5.47481e-31 4.12719e-16 2.7852e-08 1.17178 1.4662 4.94858 4.60664
1.16 3.92341e-08 2.81033e-05 8.26418e-07 6.02975e-31 4.68182e-16 2.35523e-08 1.1716 1.4662 4.94677 4.60691
1.18 3.99138e-08 2.85789e-05 8.40715e-07 6.62132e-31 1.06929e-15 1.96466e-08 1.17143 1.4662 4.94502 4.60719
1.2 4.05664e-08 2.90354e-05 8.54459e-07 7.25075e-31 4.94137e-15 1.61286e-08 1.17127 1.4662 4.9433 4.60747
1.22 4.11917e-08 2.94721e-05 8.67628e-07 7.92217e-31 1.22243e-14 1.29905e-08 1.17112 1.4662 4.94165 4.60775
1.24 4.17887e-08 2.98883e-05 8.80202e-07 8.64056e-31 2.24508e-14 1.02236e-08 1.17098 1.4662 4.94001 4.60803
1.26 4.23564e-08 3.02833e-05 8.92159e-07 9.4131e-31 3.49748e-14 7.8181e-09 1.17084 1.4662 4.93838 4.60832
1.28 4.2894e-08 3.06566e-05 9.03481e-07 1.0248e-30 4.90326e-14 5.76272e-09 1.1707 1.4662 4.93678 4.60861
1.3 4.34006e-08 3.10067e-05 9.14153e-07 1.11586e-30 6.38133e-14 4.04527e-09 1.17057 1.4662 4.93518 4.6089
1.32 4.38755e-08 3.13339e-05 9.2416e-07 1.21504e-30 6.24184e-14 2.65456e-09 1.17045 1.4662 4.93361 4.60919
1.34 4.43176e-08 3.16385e-05 9.33471e-07 1.3225e-30 1.76265e-13 1.57499e-09 1.17033 1.4662 4.93206 4.60948
1.36 4.47264e-08 3.19192e-05 9.4208e-07 1.43986e-30 4.58382e-13 7.8891e-10 1.17022 1.4662 4.93053 4.60978
1.38 4.51012e-08 3.21756e-05 9.49973e-07 1.56917e-30 8.90505e-13 2.80418e-10 1.17012 1.4662 4.92905 4.61007
1.4 4.54415e-08 3.24073e-05 9.57137e-07 1.71191e-30 1.44469e-12 3.28681e-11 1.17003 1.4662 4.92761 4.61037
1.42 4.57466e-08 3.2614e-05 9.63561e-07 1.86923e-30 2.08584e-12 2.89728e-11 1.16994 1.4662 4.92616 4.61067
1.44 4.60161e-08 3.27953e-05 9.69235e-07 2.04254e-30 2.77472e-12 2.50891e-10 1.16985 1.4662 4.92472 4.61097
1.46 4.62495e-08 3.29509e-05 9.74149e-07 2.23298e-30 3.47132e-12 6.80321e-10 1.16977 1.4662 4.92327 4.61127
1.48 4.64464e-08 3.30807e-05 9.78296e-07 2.44055e-30 4.13807e-12 1.2986e-09 1.16969 1.4662 4.92181 4.61157
1.5 4.66066e-08 3.31845e-05 9.81668e-07 2.66453e-30 4.74273e-12 2.08678e-09 1.16961 1.4662 4.92035 4.61187
1.52 4.67298e-08 3.3262e-05 9.8426e-07 2.90462e-30 5.26059e-12 3.02576e-09 1.16954 1.4662 4.91889 4.61217
1.54 4.68157e-08 3.33132e-05 9.86068e-07 3.16018e-30 5.67597e-12 4.09634e-09 1.16947 1.4662 4.91743 4.61247
1.56 4.68643e-08 3.33381e-05 9.87089e-07 3.43031e-30 5.98267e-12 5.27935e-09 1.16941 1.4662 4.91604 4.61278
1.58 4.68754e-08 3.33365e-05 9.8732e-07 3.71388e-30 6.18366e-12 6.55572e-09 1.16936 1.4662 4.9147 4.61308
1.6 4.68489e-08 3.33086e-05 9.86762e-07 4.00988e-30 6.28987e-12 7.90657e-09 1.16931 1.4662 4.91341 4.61338
1.62 4.67851e-08 3.32544e-05 9.85415e-07 4.31676e-30 6.31834e-12 9.31334e-09 1.16928 1.4662 4.91215 4.61368
1.64 4.66838e-08 3.3174e-05 9.83281e-07 4.63347e-30 6.29002e-12 1.07578e-08 1.16925 1.4662 4.91091 4.61399
1.66 4.65454e-08 3.30675e-05 9.80363e-07 4.95996e-30 6.22731e-12 1.22223e-08 1.16922 1.4662 4.90971 4.61429
1.68 4.637e-08 3.29351e-05 9.76666e-07 5.2969e-30 6.1518e-12 1.36895e-08 1.1692 1.4662 4.90853 4.61459
1.7 4.61578e-08 3.27771e-05 9.72196e-07 5.64617e-30 6.08228e-12 1.51428e-08 1.16919 1.4662 4.90738 4.61489
1.72 4.59093e-08 3.25937e-05 9.66959e-07 6.00916e-30 6.03321e-12 1.65665e-08 1.16918 1.4662 4.90624 4.61519
1.74 4.56247e-08 3.23853e-05 9.60964e-07 6.38659e-30 6.01392e-12 1.79453e-08 1.16918 1.4662 4.90514 4.61549
1.76 4.53046e-08 3.21521e-05 9.5422e-07 6.77899e-30 6.02828e-12 1.92649e-08 1.16919 1.4662 4.90406 4.61579
1.78 4.49495e-08 3.18945e-05 9.46738e-07 7.18664e-30 6.07514e-12 2.05121e-08 1.1692 1.4662 4.90301 4.61609
1.8 4.45599e-08 3.1613e-05 9.3853e-07 7.60843e-30 6.14924e-12 2.16744e-08 1.16921 1.4662 4.90198 4.61639
1.82 4.41364e-08 3.13081e-05 9.29608e-07 8.03959e-30 6.2424e-12 2.27406e-08 1.16923 1.4662 4.90099 4.61668
1.84 4.36798e-08 3.09802e-05 9.19988e-07 8.47778e-30 6.345e-12 2.37005e-08 1.16926 1.4662 4.90003 4.61697
1.86 4.31907e-08 3.06298e-05 9.09683e-07 8.92394e-30 6.44742e-12 2.45448e-08 1.1693 1.4662 4.89912 4.61727
1.88 4.26704e-08 3.02575e-05 8.98711e-07 9.37705e-30 6.54173e-12 2.52646e-08 1.16934 1.4662 4.89828 4.61756
1.9 4.21187e-08 2.9864e-05 8.87089e-07 9.83763e-30 6.62306e-12 2.58531e-08 1.16939 1.4662 4.89744 4.61785
1.92 4.1537e-08 2.94499e-05 8.74835e-07 1.03083e-29 6.68831e-12 2.63061e-08 1.16944 1.4662 4.89661 4.61813
1.94 4.09263e-08 2.90158e-05 8.6197e-07 1.07925e-29 6.73739e-12 2.66193e-08 1.16949 1.4662 4.89578 4.61842
1.96 4.02874e-08 2.85623e-05 8.48512e-07 1.12917e-29 6.77296e-12 2.67898e-08 1.16954 1.4662 4.89496 4.61871
1.98 3.96216e-08 2.80904e-05 8.34485e-07 1.18052e-29 6.79988e-12 2.68161e-08 1.16961 1.4662 4.89416 4.61904
2 3.89297e-08 2.76006e-05 8.1991e-07 1.23343e-29 6.82425e-12 2.66978e-08 1.16967 1.4662 4.89339 4.61936
2.02 3.82129e-08 2.70938e-05 8.0481e-07 1.288e-29 6.85249e-12 2.6436e-08 1.16974 1.4662 4.89264 4.61968
2.04 3.74723e-08 2.65707e-05 7.89211e-07 1.34386e-29 6.89023e-12 2.60331e-08 1.16982 1.4662 4.89192 4.62
2.06 3.67092e-08 2.60323e-05 7.73135e-07 1.40098e-29 6.94146e-12 2.54926e-08 1.16989 1.4662 4.89121 4.62032
2.08 3.59247e-08 2.54793e-05 7.5661e-07 1.45919e-29 7.00776e-12 2.48196e-08 1.16997 1.4662 4.89052 4.62063
2.1 3.51201e-08 2.49127e-05 7.39662e-07 1.51802e-29 7.08786e-12 2.40201e-08 1.17005 1.4662 4.88985 4.62094
2.12 3.42968e-08 2.43333e-05 7.22317e-07 1.57715e-29 7.17761e-12 2.31018e-08 1.17014 1.4662 4.88919 4.62125
2.14 3.34559e-08 2.3742e-05 7.04604e-07 1.63623e-29 7.27011e-12 2.20732e-08 1.17022 1.4662 4.88855 4.62155
2.16 3.25988e-08 2.31399e-05 6.86551e-07 1.69495e-29 7.35629e-12 2.09441e-08 1.17031 1.4662 4.88794 4.62185
2.18 3.17275e-08 2.25278e-05 6.68187e-07 1.75304e-29 7.42569e-12 1.97255e-08 1.1704 1.4662 4.88736 4.62214
2.2 3.08431e-08 2.19068e-05 6.4954e-07 1.81015e-29 7.52289e-12 1.84279e-08 1.1705 1.4662 4.88681 4.62243
2.22 2.99459e-08 2.12777e-05 6.30642e-07 1.8659e-29 7.63813e-12 1.70647e-08 1.1706 1.4662 4.88629 4.62272
2.24 2.90382e-08 2.06415e-05 6.11523e-07 1.91991e-29 7.7035e-12 1.56514e-08 1.1707 1.4662 4.88579 4.623
2.26 2.81215e-08 1.99994e-05 5.92212e-07 1.97209e-29 7.70815e-12 1.4203e-08 1.1708 1.4662 4.88532 4.62328
2.28 2.71971e-08 1.93518e-05 5.72742e-07 2.02265e-29 7.6447e-12 1.2735e-08 1.1709 1.4662 4.88487 4.62355
2.3 2.62667e-08 1.87002e-05 5.53144e-07 2.07207e-29 7.52501e-12 1.12679e-08 1.171 1.4662 4.88444 4.62382
2.32 2.53316e-08 1.8046e-05 5.33447e-07 2.12132e-29 7.35323e-12 9.81809e-09 1.17111 1.4662 4.88403 4.62409
2.34 2.43934e-08 1.73898e-05 5.13685e-07 2.17143e-29 7.12108e-12 8.39911e-09 1.17122 1.4662 4.88366 4.62435
2.36 2.34536e-08 1.67328e-05 4.9389e-07 2.22326e-29 6.83873e-12 7.02899e-09 1.17133 1.4662 4.88331 4.6246
2.38 2.25136e-08 1.60759e-05 4.74092e-07 2.27718e-29 6.52009e-12 5.72621e-09 1.17144 1.4662 4.883 4.62485
2.4 2.15751e-08 1.54201e-05 4.54324e-07 2.33334e-29 6.18189e-12 4.50959e-09 1.17155 1.4662 4.88269 4.6251
2.42 2.06395e-08 1.47666e-05 4.34618e-07 2.39241e-29 5.84246e-12 3.39818e-09 1.17166 1.4662 4.8824 4.62534
2.44 1.97083e-08 1.41162e-05 4.15005e-07 2.45478e-29 5.52042e-12 2.41121e-09 1.17177 1.4662 4.88213 4.62557
2.46 1.87831e-08 1.34701e-05 3.95516e-07 2.52045e-29 5.23331e-12 1.56797e-09 1.17188 1.4662 4.88186 4.6258
2.48 1.78652e-08 1.28293e-05 3.76184e-07 2.59016e-29 4.99637e-12 8.87757e-10 1.17199 1.4662 4.8816 4.62602
2.5 1.69563e-08 1.21947e-05 3.5704e-07 2.66457e-29 4.82141e-12 3.89736e-10 1.17209 1.4662 4.88136 4.62624
2.52 1.60577e-08 1.15668e-05 3.38113e-07 2.74314e-29 4.71598e-12 9.28897e-11 1.1722 1.4662 4.88114 4.62645
2.54 1.51711e-08 1.0947e-05 3.19436e-07 2.8248e-29 4.68263e-12 1.58943e-11 1.17231 1.4662 4.88095 4.62666
2.56 1.42975e-08 1.03372e-05 3.01037e-07 2.9088e-29 4.7193e-12 1.75935e-10 1.17242 1.4662 4.88079 4.62686
2.58 1.34386e-08 9.73755e-06 2.82946e-07 2.9951e-29 4.81978e-12 5.90389e-10 1.17253 1.4662 4.88067 4.62706
2.6 1.25957e-08 9.14904e-06 2.65194e-07 3.08234e-29 4.97367e-12 1.27638e-09 1.17264 1.4662 4.88057 4.62725
2.62 1.17703e-08 8.5726e-06 2.47808e-07 3.16845e-29 5.16753e-12 2.25035e-09 1.17274 1.4662 4.88048 4.62743
2.64 1.09633e-08 8.00875e-06 2.30817e-07 3.25314e-29 5.38605e-12 3.52796e-09 1.17285 1.4662 4.8804 4.62761
2.66 1.01772e-08 7.45942e-06 2.14251e-07 3.33641e-29 5.66208e-12 5.12242e-09 1.17295 1.4662 4.88033 4.62778
2.68 9.41214e-09 6.92525e-06 1.9814e-07 3.41745e-29 6.01878e-12 7.04965e-09 1.17305 1.4662 4.88027 4.62794
2.7 8.66959e-09 6.40556e-06 1.82501e-07 3.49622e-29 6.48594e-12 9.32522e-09 1.17315 1.4662 4.88021 4.6281
2.72 7.95083e-09 5.90226e-06 1.67363e-07 3.57489e-29 7.17731e-12 1.19561e-08 1.17325 1.4662 4.88016 4.62825
2.74 7.25673e-09 5.41664e-06 1.52743e-07 3.65614e-29 8.16991e-12 1.49519e-08 1.17334 1.4662 4.88012 4.6284
2.76 6.58869e-09 4.94901e-06 1.38672e-07 3.74162e-29 9.31245e-12 1.83242e-08 1.17343 1.4662 4.88008 4.62854
2.78 5.94779e-09 4.50011e-06 1.25173e-07 3.83206e-29 1.05367e-11 2.20812e-08 1.17351 1.4662 4.88004 4.62867
2.8 5.33508e-09 4.07067e-06 1.12268e-07 3.92683e-29 1.17747e-11 2.62297e-08 1.1736 1.4662 4.88001 4.62879
2.82 4.75155e-09 3.66137e-06 9.99771e-08 4.02424e-29 1.29634e-11 3.07753e-08 1.17367 1.4662 4.87998 4.62891
2.84 4.19815e-09 3.27288e-06 8.83217e-08 4.12325e-29 1.4049e-11 3.57221e-08 1.17375 1.4662 4.87996 4.62903
2.86 3.6758e-09 2.90581e-06 7.73203e-08 4.22324e-29 1.49895e-11 4.10727e-08 1.17382 1.4662 4.87994 4.62913
2.88 3.18535e-09 2.56076e-06 6.69912e-08 4.32332e-29 1.57569e-11 4.68284e-08 1.17389 1.4662 4.87993 4.62923
2.9 2.72794e-09 2.23906e-06 5.73543e-08 4.42228e-29 1.63376e-11 5.29889e-08 1.17395 1.4662 4.87991 4.62932
2.92 2.3042e-09 1.94047e-06 4.84236e-08 4.51836e-29 1.65697e-11 5.95605e-08 1.17401 1.4662 4.8799 4.62941
2.94 1.91408e-09 1.6647e-06 4.02085e-08 4.61053e-29 1.64891e-11 6.65414e-08 1.17406 1.4662 4.87989 4.62949
2.96 1.55876e-09 1.41298e-06 3.27267e-08 4.69937e-29 1.63015e-11 7.39189e-08 1.17411 1.4662 4.87988 4.62956
2.98 1.23884e-09 1.18572e-06 2.59904e-08 4.78612e-29 1.60487e-11 8.16864e-08 1.17415 1.4662 4.87988 4.62962
3 9.54836e-10 9.83309e-07 2.0011e-08 4.87315e-29 1.57702e-11 8.98357e-08 1.17419 1.4662 4.87987 4.62968
3.02 7.07237e-10 8.06083e-07 1.47983e-08 4.96404e-29 1.55002e-11 9.8357e-08 1.17423 1.4662 4.87986 4.62973
3.04 4.9646e-10 6.54349e-07 1.03612e-08 5.06284e-29 1.52642e-11 1.07239e-07 1.17426 1.4662 4.87986 4.62977
3.06 3.22862e-10 5.28369e-07 6.70723e-09 5.17368e-29 1.50785e-11 1.16468e-07 1.17428 1.4662 4.87985 4.62981
3.08 1.86745e-10 4.28369e-07 3.84274e-09 5.30025e-29 1.49494e-11 1.26031e-07 1.1743 1.4662 4.87985 4.62984
3.1 8.83489e-11 3.54534e-07 1.77277e-09 5.44513e-29 1.48749e-11 1.35911e-07 1.17431 1.4662 4.87984 4.62986
3.12 2.78535e-11 3.07008e-07 5.01128e-10 5.61012e-29 1.48468e-11 1.46091e-07 1.17432 1.4662 4.87983 4.62987
3.14 5.37895e-12 2.85894e-07 3.03365e-11 5.79642e-29 1.48528e-11 1.56553e-07 1.17433 1.4662 4.87982 4.62988
3.16 2.09842e-11 2.91255e-07 3.61644e-10 6.00412e-29 1.48799e-11 1.67276e-07 1.17433 1.4662 4.87981 4.62988
3.18 7.46675e-11 3.23114e-07 1.49501e-09 6.2324e-29 1.49162e-11 1.78239e-07 1.17432 1.4662 4.8798 4.62988
3.2 1.66755e-10 3.8152e-07 3.42904e-09 6.47989e-29 1.49534e-11 1.8942e-07 1.17431 1.4662 4.87978 4.62986
3.22 2.97358e-10 4.66337e-07 6.16119e-09 6.74392e-29 1.49954e-11 2.00798e-07 1.17429 1.4662 4.87976 4.62984
3.24 4.64153e-10 5.78602e-07 9.6874e-09 7.02162e-29 1.50421e-11 2.12346e-07 1.17427 1.4662 4.87973 4.62981
3.26 6.68403e-10 7.17321e-07 1.40025e-08 7.31113e-29 1.50823e-11 2.24068e-07 1.17424 1.4662 4.8797 4.62978
3.28 9.1054e-10 8.81223e-07 1.91009e-08 7.60967e-29 1.51287e-11 2.35946e-07 1.1742 1.4662 4.87967 4.62974
3.3 1.18953e-09 1.07054e-06 2.49743e-08 7.91559e-29 1.51933e-11 2.47937e-07 1.17416 1.4662 4.87963 4.62969
3.32 1.50466e-09 1.28493e-06 3.16134e-08 8.22955e-29 1.52606e-11 2.60006e-07 1.17412 1.4662 4.87959 4.62963
3.34 1.85568e-09 1.5245e-06 3.90083e-08 8.55283e-29 1.53233e-11 2.72113e-07 1.17407 1.4662 4.87955 4.62957
3.36 2.24204e-09 1.78892e-06 4.71478e-08 8.88733e-29 1.53758e-11 2.8423e-07 1.17401 1.4662 4.87951 4.6295
3.38 2.66501e-09 2.07844e-06 5.60171e-08 9.23413e-29 1.54075e-11 2.96326e-07 1.17395 1.4662 4.87947 4.62942
3.4 3.12296e-09 2.39197e-06 6.56068e-08 9.59505e-29 1.52013e-11 3.08392e-07 1.17389 1.4662 4.87943 4.62934
3.42 3.61159e-09 2.72841e-06 7.59003e-08 9.97236e-29 1.47887e-11 3.20397e-07 1.17382 1.4662 4.87939 4.62925
3.44 4.13285e-09 3.08791e-06 8.68811e-08 1.03665e-28 1.43755e-11 3.3229e-07 1.17375 1.4662 4.87936 4.62915
3.46 4.68593e-09 3.46996e-06 9.8532e-08 1.07771e-28 1.39478e-11 3.44041e-07 1.17367 1.4662 4.87933 4.62904
3.48 5.26996e-09 3.87397e-06 1.10835e-07 1.12056e-28 1.34941e-11 3.55618e-07 1.17359 1.4662 4.87932 4.62893
3.5 5.88476e-09 4.29938e-06 1.2377e-07 1.16528e-28 1.30093e-11 3.6699e-07 1.17351 1.4662 4.87933 4.62881
3.52 6.52868e-09 4.74551e-06 1.37319e-07 1.21159e-28 1.25143e-11 3.78129e-07 1.17343 1.4662 4.87936 4.62869
3.54 7.19991e-09 5.21162e-06 1.51458e-07 1.25921e-28 1.20084e-11 3.89005e-07 1.17334 1.4662 4.87942 4.62856
3.56 7.89815e-09 5.69707e-06 1.66166e-07 1.30796e-28 1.15158e-11 3.99587e-07 1.17326 1.4662 4.8795 4.62842
3.58 8.62231e-09 6.20111e-06 1.81419e-07 1.35777e-28 1.10966e-11 4.09846e-07 1.17317 1.4662 4.87958 4.62827
3.6 9.37125e-09 6.72297e-06 1.97194e-07 1.40863e-28 1.08155e-11 4.19753e-07 1.17307 1.4662 4.87968 4.62812
3.62 1.01438e-08 7.26192e-06 2.13466e-07 1.46058e-28 1.07362e-11 4.29282e-07 1.17298 1.4662 4.8798 4.62796
3.64 1.09389e-08 7.81706e-06 2.30208e-07 1.51374e-28 1.08954e-11 4.3841e-07 1.17289 1.4662 4.87994 4.6278
3.66 1.17549e-08 8.38746e-06 2.47395e-07 1.56825e-28 1.1324e-11 4.47113e-07 1.17279 1.4662 4.88008 4.62763
3.68 1.25908e-08 8.97232e-06 2.64999e-07 1.62442e-28 1.20586e-11 4.55361e-07 1.17269 1.4662 4.88022 4.62745
3.7 1.34452e-08 9.57072e-06 2.82993e-07 1.68252e-28 1.30975e-11 4.63131e-07 1.17259 1.4662 4.88038 4.62727
